frequency_hz,amplitude
0.000000000000000000e+00,4.316075477404195539e-13
4.908447265625000000e-01,2.111763961354873198e-12
9.816894531250000000e-01,3.951601717989324050e-12
1.472534179687500000e+00,5.852295031138937445e-12
1.963378906250000000e+00,7.773301691116069497e-12
2.454223632812500000e+00,9.707102592886775830e-12
2.945068359375000000e+00,1.165219083909653929e-11
3.435913085937500000e+00,1.360888583272285647e-11
3.926757812500000000e+00,1.557816830386589188e-11
4.417602539062500000e+00,1.756137089267379221e-11
4.908447265625000000e+00,1.956000074721287015e-11
5.399291992187500000e+00,2.157567494524616467e-11
5.890136718750000000e+00,2.361008577970115662e-11
6.380981445312500000e+00,2.566502483270937500e-11
6.871826171875000000e+00,2.774230724761547254e-11
7.362670898437500000e+00,2.984384361648422271e-11
7.853515625000000000e+00,3.197158542371063269e-11
8.344360351562500000e+00,3.412756658659603599e-11
8.835205078125000000e+00,3.631386333579813368e-11
9.326049804687500000e+00,3.853264989390865787e-11
9.816894531250000000e+00,4.078616871813436835e-11
1.030773925781250000e+01,4.307673026685697083e-11
1.079858398437500000e+01,4.540675316044359100e-11
1.128942871093750000e+01,4.777873906229263687e-11
1.178027343750000000e+01,5.019529343122009915e-11
1.227111816406250000e+01,5.265912404596209745e-11
1.276196289062500000e+01,5.517308688912738632e-11
1.325280761718750000e+01,5.774011748414719253e-11
1.374365234375000000e+01,6.036332114454373409e-11
1.423449707031250000e+01,6.304592263111970746e-11
1.472534179687500000e+01,6.579133066908172922e-11
1.521618652343750000e+01,6.860309689434494278e-11
1.570703125000000000e+01,7.148495878464591354e-11
1.619787597656250000e+01,7.444086984051269070e-11
1.668872070312500000e+01,7.747493968539000976e-11
1.717956542968750000e+01,8.059155952682332346e-11
1.767041015625000000e+01,8.379530231186531450e-11
1.816125488281250000e+01,8.709105159337962713e-11
1.865209960937500000e+01,9.048393271634474568e-11
1.914294433593750000e+01,9.397938771006210948e-11
1.963378906250000000e+01,9.758318213883687840e-11
2.012463378906250000e+01,1.013013925304824596e-10
2.061547851562500000e+01,1.051405412546733174e-10
2.110632324218750000e+01,1.091074736251384977e-10
2.159716796875000000e+01,1.132095517008471741e-10
2.208801269531250000e+01,1.174545474622690711e-10
2.257885742187500000e+01,1.218507721564312576e-10
2.306970214843750000e+01,1.264071065695513361e-10
2.356054687500000000e+01,1.311330046926789958e-10
2.405139160156250000e+01,1.360385976520358589e-10
2.454223632812500000e+01,1.411347303612772701e-10
2.503308105468750000e+01,1.464329943784291735e-10
2.552392578125000000e+01,1.519458604986942575e-10
2.601477050781250000e+01,1.576866942762220682e-10
2.650561523437500000e+01,1.636698763078109098e-10
2.699645996093750000e+01,1.699108821260241101e-10
2.748730468750000000e+01,1.764263994884488340e-10
2.797814941406250000e+01,1.832344236491794590e-10
2.846899414062500000e+01,1.903544015420266866e-10
2.895983886718750000e+01,1.978073655227811560e-10
2.945068359375000000e+01,2.056161081067655318e-10
2.994152832031250000e+01,2.138053543480793105e-10
3.043237304687500000e+01,2.224019335574065385e-10
3.092321777343750000e+01,2.314350782951320130e-10
3.141406250000000000e+01,2.409365909256316553e-10
3.190490722656250000e+01,2.509412055887969367e-10
3.239575195312500000e+01,2.614868546627513237e-10
3.288659667968750000e+01,2.726150884773253409e-10
3.337744140625000000e+01,2.843714497726573375e-10
3.386828613281250000e+01,2.968059540917698577e-10
3.435913085937500000e+01,3.099736902925729693e-10
3.484997558593750000e+01,3.239353356770144219e-10
3.534082031250000000e+01,3.387579685856725067e-10
3.583166503906250000e+01,3.545158025661123566e-10
3.632250976562500000e+01,3.712912106073578094e-10
3.681335449218750000e+01,3.891757534685888906e-10
3.730419921875000000e+01,4.082714553236365302e-10
3.779504394531250000e+01,4.286922686187878495e-10
3.828588867187500000e+01,4.505658524537786544e-10
3.877673339843750000e+01,4.740355142042161920e-10
3.926757812500000000e+01,4.992625908380541592e-10
3.975842285156250000e+01,5.264293015213907991e-10
4.024926757812500000e+01,5.557419629519881244e-10
4.074011230468750000e+01,5.874350525296573457e-10
4.123095703125000000e+01,6.217758348062101458e-10
4.172180175781250000e+01,6.590700578097626760e-10
4.221264648437500000e+01,6.996688525531357359e-10
4.270349121093750000e+01,7.439769409108888771e-10
4.319433593750000000e+01,7.924628670318976388e-10
4.368518066406250000e+01,8.456713698859314203e-10
4.417602539062500000e+01,9.042388436966530705e-10
4.466687011718750000e+01,9.689123066359621927e-10
4.515771484375000000e+01,1.040573484452364217e-09
4.564855957031250000e+01,1.120268826050268471e-09
4.613940429687500000e+01,1.209247970032703196e-09
4.663024902343750000e+01,1.309012829240331805e-09
4.712109375000000000e+01,1.421381259031861127e-09
4.761193847656250000e+01,1.548570172395178693e-09
4.810278320312500000e+01,1.693305291954519970e-09
4.859362792968750000e+01,1.858967807671153229e-09
4.908447265625000000e+01,2.049792729504945817e-09
4.957531738281250000e+01,2.271140844314345459e-09
5.006616210937500000e+01,2.529877209657199536e-09
5.055700683593750000e+01,2.834906616372953141e-09
5.104785156250000000e+01,3.197944995108598724e-09
5.153869628906250000e+01,3.634653143004934150e-09
5.202954101562500000e+01,4.166341009819227183e-09
5.252038574218750000e+01,4.822595317820045020e-09
5.301123046875000000e+01,5.645448171897109470e-09
5.350207519531250000e+01,6.696211911513151990e-09
5.399291992187500000e+01,8.067117768111449412e-09
5.448376464843750000e+01,9.902035341368531224e-09
5.497460937500000000e+01,1.243535543448587208e-08
5.546545410156250000e+01,1.606976426644882009e-08
5.595629882812500000e+01,2.154458238799598928e-08
5.644714355468750000e+01,3.033867618400909386e-08
5.693798828125000000e+01,4.577255618471701411e-08
5.742883300781250000e+01,7.664754393627249624e-08
5.791967773437500000e+01,1.533616911324667261e-07
5.841052246093750000e+01,4.533869975246950069e-07
5.890136718750000000e+01,2.745490013983818353e-02
5.939221191406250000e+01,6.870310569099062625e-02
5.988305664062500000e+01,5.505766437874343860e-02
6.037390136718750000e+01,1.381229082232620503e-02
6.086474609375000000e+01,7.269639664348022145e-08
6.135559082031250000e+01,8.530054896119077261e-09
6.184643554687500000e+01,1.400243569124837800e-08
6.233728027343750000e+01,1.292066822334683742e-08
6.282812500000000000e+01,1.091853309836143802e-08
6.331896972656250000e+01,9.093831137099559351e-09
6.380981445312500000e+01,7.602955614091874785e-09
6.430065917968750000e+01,6.413805051196764369e-09
6.479150390625000000e+01,5.465653039951209101e-09
6.528234863281250000e+01,4.703937172187104210e-09
6.577319335937500000e+01,4.085779747988862802e-09
6.626403808593750000e+01,3.578755014455574928e-09
6.675488281250000000e+01,3.158550781972683669e-09
6.724572753906250000e+01,2.806884177532992696e-09
6.773657226562500000e+01,2.509898978056174564e-09
6.822741699218750000e+01,2.256991213437795188e-09
6.871826171875000000e+01,2.039961424707679432e-09
6.920910644531250000e+01,1.852403624318945031e-09
6.969995117187500000e+01,1.689262762498364941e-09
7.019079589843750000e+01,1.546511670294783040e-09
7.068164062500000000e+01,1.420913149292764483e-09
7.117248535156250000e+01,1.309842883371996913e-09
7.166333007812500000e+01,1.211156545043474336e-09
7.215417480468750000e+01,1.123088972048609421e-09
7.264501953125000000e+01,1.044176947467548573e-09
7.313586425781250000e+01,9.731997262452954158e-10
7.362670898437500000e+01,9.091325012102735073e-10
7.411755371093750000e+01,8.511101233226350982e-10
7.460839843750000000e+01,7.983982194792706601e-10
7.509924316406250000e+01,7.503702751470149651e-10
7.559008789062500000e+01,7.064892306272253023e-10
7.608093261718750000e+01,6.662926433128476575e-10
7.657177734375000000e+01,6.293806001973485820e-10
7.706262207031250000e+01,5.954058707981912627e-10
7.755346679687500000e+01,5.640658217493511192e-10
7.804431152343750000e+01,5.350957388441259254e-10
7.853515625000000000e+01,5.082632465949979270e-10
7.902600097656250000e+01,4.833637307580683733e-10
7.951684570312500000e+01,4.602164190837050128e-10
8.000769042968750000e+01,4.386611720825560293e-10
8.049853515625000000e+01,4.185556681193958768e-10
8.098937988281250000e+01,3.997731396432915274e-10
8.148022460937500000e+01,3.822003489051218121e-10
8.197106933593750000e+01,3.657358968179852895e-10
8.246191406250000000e+01,3.502887666649096560e-10
8.295275878906250000e+01,3.357770912782831620e-10
8.344360351562500000e+01,3.221270535164152429e-10
8.393444824218750000e+01,3.092719705592953230e-10
8.442529296875000000e+01,2.971514746844042892e-10
8.491613769531250000e+01,2.857108046965463180e-10
8.540698242187500000e+01,2.749002214684452994e-10
8.589782714843750000e+01,2.646744123640090128e-10
8.638867187500000000e+01,2.549921010013472261e-10
8.687951660156250000e+01,2.458155344042287974e-10
8.737036132812500000e+01,2.371102211203503984e-10
8.786120605468750000e+01,2.288445365323892519e-10
8.835205078125000000e+01,2.209894526229440045e-10
8.884289550781250000e+01,2.135182899430036738e-10
8.933374023437500000e+01,2.064065338383852359e-10
8.982458496093750000e+01,1.996315461555233326e-10
9.031542968750000000e+01,1.931724715763254790e-10
9.080627441406250000e+01,1.870100195642800994e-10
9.129711914062500000e+01,1.811263652658644189e-10
9.178796386718750000e+01,1.755049849292826138e-10
9.227880859375000000e+01,1.701305682079007089e-10
9.276965332031250000e+01,1.649888964219193426e-10
9.326049804687500000e+01,1.600667654082963080e-10
9.375134277343750000e+01,1.553518780161511638e-10
9.424218750000000000e+01,1.508327875219739440e-10
9.473303222656250000e+01,1.464988587537133884e-10
9.522387695312500000e+01,1.423401024685392072e-10
9.571472167968750000e+01,1.383472499618154509e-10
9.620556640625000000e+01,1.345115962649328961e-10
9.669641113281250000e+01,1.308250240886214673e-10
9.718725585937500000e+01,1.272799293695259329e-10
9.767810058593750000e+01,1.238691574075406231e-10
9.816894531250000000e+01,1.205860479362364339e-10
9.865979003906250000e+01,1.174242996981587386e-10
9.915063476562500000e+01,1.143779961160144753e-10
9.964147949218750000e+01,1.114416229699469564e-10
1.001323242187500000e+02,1.086099441011616624e-10
1.006231689453125000e+02,1.058780418612156314e-10
1.011140136718750000e+02,1.032412902389627517e-10
1.016048583984375000e+02,1.006953178970242827e-10
1.020957031250000000e+02,9.823601561558268886e-11
1.025865478515625000e+02,9.585948187382873615e-11
1.030773925781250000e+02,9.356203189561990863e-11
1.035682373046875000e+02,9.134022112000909164e-11
1.040590820312500000e+02,8.919072714370890929e-11
1.045499267578125000e+02,8.711046305115759174e-11
1.050407714843750000e+02,8.509648116131691804e-11
1.055316162109375000e+02,8.314596673873211815e-11
1.060224609375000000e+02,8.125629702680504675e-11
1.065133056640625000e+02,7.942494053782373916e-11
1.070041503906250000e+02,7.764952993326703427e-11
1.074949951171875000e+02,7.592778792053551716e-11
1.079858398437500000e+02,7.425756591450756318e-11
1.084766845703125000e+02,7.263681314059234358e-11
1.089675292968750000e+02,7.106359640749705432e-11
1.094583740234375000e+02,6.953604534258102324e-11
1.099492187500000000e+02,6.805241214658212692e-11
1.104400634765625000e+02,6.661100891192117259e-11
1.109309082031250000e+02,6.521023504203481151e-11
1.114217529296875000e+02,6.384856787727998040e-11
1.119125976562500000e+02,6.252455188768307557e-11
1.124034423828125000e+02,6.123680030039463413e-11
1.128942871093750000e+02,5.998396638088689139e-11
1.133851318359375000e+02,5.876480691922563403e-11
1.138759765625000000e+02,5.757810114233052419e-11
1.143668212890625000e+02,5.642270149472759232e-11
1.148576660156250000e+02,5.529748466617210418e-11
1.153485107421875000e+02,5.420142555425992347e-11
1.158393554687500000e+02,5.313346633623905654e-11
1.163302001953125000e+02,5.209267524980074258e-11
1.168210449218750000e+02,5.107810098485367876e-11
1.173118896484375000e+02,5.008887469106764966e-11
1.178027343750000000e+02,4.912412882242759305e-11
1.182935791015625000e+02,4.818305691139757858e-11
1.187844238281250000e+02,4.726487579920935472e-11
1.192752685546875000e+02,4.636882353382612936e-11
1.197661132812500000e+02,4.549419296075468701e-11
1.202569580078125000e+02,4.464027990529809550e-11
1.207478027343750000e+02,4.380644158131951144e-11
1.212386474609375000e+02,4.299202151415781543e-11
1.217294921875000000e+02,4.219641793115278877e-11
1.222203369140625000e+02,4.141904719618497526e-11
1.227111816406250000e+02,4.065933860505215857e-11
1.232020263671875000e+02,3.991673746830715319e-11
1.236928710937500000e+02,3.919074893219207146e-11
1.241837158203125000e+02,3.848084089344910755e-11
1.246745605468750000e+02,3.778656651705005824e-11
1.251654052734375000e+02,3.710743027772802116e-11
1.256562500000000000e+02,3.644301517505646032e-11
1.261470947265625000e+02,3.579285965787215634e-11
1.266379394531250000e+02,3.515657089288122471e-11
1.271287841796875000e+02,3.453376486846374042e-11
1.276196289062500000e+02,3.392402623064711462e-11
1.281104736328125000e+02,3.332701214393640281e-11
1.286013183593750000e+02,3.274236162104923390e-11
1.290921630859375000e+02,3.216974401247437285e-11
1.295830078125000000e+02,3.160881373536195645e-11
1.300738525390625000e+02,3.105927397297786557e-11
1.305646972656250000e+02,3.052080933465937201e-11
1.310555419921875000e+02,2.999312684354420918e-11
1.315463867187500000e+02,2.947596851938520425e-11
1.320372314453125000e+02,2.896903964608028281e-11
1.325280761718750000e+02,2.847209134900400030e-11
1.330189208984375000e+02,2.798488649916237292e-11
1.335097656250000000e+02,2.750716420434463217e-11
1.340006103515625000e+02,2.703871035660524864e-11
1.344914550781250000e+02,2.657931946006272967e-11
1.349822998046875000e+02,2.612875306651689716e-11
1.354731445312500000e+02,2.568682303179064344e-11
1.359639892578125000e+02,2.525334281832554095e-11
1.364548339843750000e+02,2.482811242130392589e-11
1.369456787109375000e+02,2.441098079694510599e-11
1.374365234375000000e+02,2.400176283392525308e-11
1.379273681640625000e+02,2.360030902258834632e-11
1.384182128906250000e+02,2.320646984588417796e-11
1.389090576171875000e+02,2.282008999800457738e-11
1.393999023437500000e+02,2.244104546862925747e-11
1.398907470703125000e+02,2.206921164679957356e-11
1.403815917968750000e+02,2.170446350732653719e-11
1.408724365234375000e+02,2.134669812591002998e-11
1.413632812500000000e+02,2.099580510223686478e-11
1.418541259765625000e+02,2.065169567934149144e-11
1.423449707031250000e+02,2.031427407700955287e-11
1.428358154296875000e+02,1.998346463622996636e-11
1.433266601562500000e+02,1.965919414957444944e-11
1.438175048828125000e+02,1.934140748172208348e-11
1.443083496093750000e+02,1.903004231672446075e-11
1.447991943359375000e+02,1.872504396829896687e-11
1.452900390625000000e+02,1.842639071412926774e-11
1.457808837890625000e+02,1.813403967155041083e-11
1.462717285156250000e+02,1.784796272427575266e-11
1.467625732421875000e+02,1.756816383624869619e-11
1.472534179687500000e+02,1.729463017390142083e-11
1.477442626953125000e+02,1.702735368538694880e-11
1.482351074218750000e+02,1.676637064818300827e-11
1.487259521484375000e+02,1.651168604737488299e-11
1.492167968750000000e+02,1.626333600171587366e-11
1.497076416015625000e+02,1.602137073138356487e-11
1.501984863281250000e+02,1.578581467166812259e-11
1.506893310546875000e+02,1.555676431141604454e-11
1.511801757812500000e+02,1.533426494026739146e-11
1.516710205078125000e+02,1.511840558112818036e-11
1.521618652343750000e+02,1.490927469321696532e-11
1.526527099609375000e+02,1.470698256467373318e-11
1.531435546875000000e+02,1.451161391352181932e-11
1.536343994140625000e+02,1.432332611577749547e-11
1.541252441406250000e+02,1.414221816108219268e-11
1.546160888671875000e+02,1.396843919662823264e-11
1.551069335937500000e+02,1.380214596232287450e-11
1.555977783203125000e+02,1.364348569398715950e-11
1.560886230468750000e+02,1.349261892741680577e-11
1.565794677734375000e+02,1.334974436960187559e-11
1.570703125000000000e+02,1.321500879486099177e-11
1.575611572265625000e+02,1.308863301437558747e-11
1.580520019531250000e+02,1.297079236508237998e-11
1.585428466796875000e+02,1.286167681062751791e-11
1.590336914062500000e+02,1.276150360853209514e-11
1.595245361328125000e+02,1.267047035526108360e-11
1.600153808593750000e+02,1.258878643893435025e-11
1.605062255859375000e+02,1.251665360904209186e-11
1.609970703125000000e+02,1.245426814988970846e-11
1.614879150390625000e+02,1.240184900284288723e-11
1.619787597656250000e+02,1.235956327053903492e-11
1.624696044921875000e+02,1.232763429115957396e-11
1.629604492187500000e+02,1.230623493440963282e-11
1.634512939453125000e+02,1.229554051043764751e-11
1.639421386718750000e+02,1.229572228610173856e-11
1.644329833984375000e+02,1.230694073894578497e-11
1.649238281250000000e+02,1.232933485926136284e-11
1.654146728515625000e+02,1.236304237737704966e-11
1.659055175781250000e+02,1.240820439817826849e-11
1.663963623046875000e+02,1.246490622540119137e-11
1.668872070312500000e+02,1.253327568330017020e-11
1.673780517578125000e+02,1.261338917113436181e-11
1.678688964843750000e+02,1.270531594071916551e-11
1.683597412109375000e+02,1.280914725698650905e-11
1.688505859375000000e+02,1.292491798535546951e-11
1.693414306640625000e+02,1.305269185082583730e-11
1.698322753906250000e+02,1.319249322471649748e-11
1.703231201171875000e+02,1.334438006788175396e-11
1.708139648437500000e+02,1.350837961548028007e-11
1.713048095703125000e+02,1.368450396654855954e-11
1.717956542968750000e+02,1.387279484541723914e-11
1.722864990234375000e+02,1.407327852865617985e-11
1.727773437500000000e+02,1.428597466249918476e-11
1.732681884765625000e+02,1.451092581304922476e-11
1.737590332031250000e+02,1.474815419510150257e-11
1.742498779296875000e+02,1.499772098049288336e-11
1.747407226562500000e+02,1.525966298612578374e-11
1.752315673828125000e+02,1.553404876539260307e-11
1.757224121093750000e+02,1.582094645345836977e-11
1.762132568359375000e+02,1.612043745518823883e-11
1.767041015625000000e+02,1.643261581025581125e-11
1.771949462890625000e+02,1.675759117095790940e-11
1.776857910156250000e+02,1.709549689256687044e-11
1.781766357421875000e+02,1.744645475397377138e-11
1.786674804687500000e+02,1.781064822874005476e-11
1.791583251953125000e+02,1.818823275266572837e-11
1.796491699218750000e+02,1.857941950199565373e-11
1.801400146484375000e+02,1.898442083118918231e-11
1.806308593750000000e+02,1.940346896233100729e-11
1.811217041015625000e+02,1.983682108041105741e-11
1.816125488281250000e+02,2.028477349262926115e-11
1.821033935546875000e+02,2.074762018773465525e-11
1.825942382812500000e+02,2.122568951091734330e-11
1.830850830078125000e+02,2.171935489923095744e-11
1.835759277343750000e+02,2.222897957466835572e-11
1.840667724609375000e+02,2.275498686538401525e-11
1.845576171875000000e+02,2.329781834284031441e-11
1.850484619140625000e+02,2.385794224077174540e-11
1.855393066406250000e+02,2.443585728817919616e-11
1.860301513671875000e+02,2.503211365636849922e-11
1.865209960937500000e+02,2.564726735413326735e-11
1.870118408203125000e+02,2.628193628044557480e-11
1.875026855468750000e+02,2.693676050599897584e-11
1.879935302734375000e+02,2.761241949197902640e-11
1.884843750000000000e+02,2.830965800494311826e-11
1.889752197265625000e+02,2.902923310495434866e-11
1.894660644531250000e+02,2.977197494213224136e-11
1.899569091796875000e+02,3.053874674149987975e-11
1.904477539062500000e+02,3.133046023053715338e-11
1.909385986328125000e+02,3.214810961057289435e-11
1.914294433593750000e+02,3.299271000386789764e-11
1.919202880859375000e+02,3.386536229853908586e-11
1.924111328125000000e+02,3.476723290549900173e-11
1.929019775390625000e+02,3.569954896948586449e-11
1.933928222656250000e+02,3.666361708743989246e-11
1.938836669921875000e+02,3.766080961259658215e-11
1.943745117187500000e+02,3.869261709811001460e-11
1.948653564453125000e+02,3.976056841024708633e-11
1.953562011718750000e+02,4.086634825594634984e-11
