frequency_hz,amplitude
0.000000000000000000e+00,1.135102963021128881e-10
4.913330078125000000e-01,2.271892664342889718e-10
9.826660156250000000e-01,2.276962933347627584e-10
1.473999023437500000e+00,2.285446916480788655e-10
1.965332031250000000e+00,2.297395387333295836e-10
2.456665039062500000e+00,2.312880171522948811e-10
2.947998046875000000e+00,2.331995010311131800e-10
3.439331054687500000e+00,2.354856586492989310e-10
3.930664062500000000e+00,2.381605933388385707e-10
4.421997070312500000e+00,2.412410158102021713e-10
4.913330078125000000e+00,2.447464308456470340e-10
5.404663085937500000e+00,2.486993908006478135e-10
5.895996093750000000e+00,2.531257699008485581e-10
6.387329101562500000e+00,2.580551278444298324e-10
6.878662109375000000e+00,2.635210782609928543e-10
7.369995117187500000e+00,2.695617613451935069e-10
7.861328125000000000e+00,2.762204269435522366e-10
8.352661132812500000e+00,2.835460408025032373e-10
8.843994140625000000e+00,2.915940673045006156e-10
9.335327148437500000e+00,3.004273790403043584e-10
9.826660156250000000e+00,3.101172853485038203e-10
1.031799316406250000e+01,3.207448667025815438e-10
1.080932617187500000e+01,3.324023900180587556e-10
1.130065917968750000e+01,3.451952049128252435e-10
1.179199218750000000e+01,3.592438149318402952e-10
1.228332519531250000e+01,3.746865513073724639e-10
1.277465820312500000e+01,3.916826765837715037e-10
1.326599121093750000e+01,4.104162531203531683e-10
1.375732421875000000e+01,4.311008233836392398e-10
1.424865722656250000e+01,4.539851667703991246e-10
1.473999023437500000e+01,4.793605065810384495e-10
1.523132324218750000e+01,5.075693636918210991e-10
1.572265625000000000e+01,5.390167939202274394e-10
1.621398925781250000e+01,5.741845499426652984e-10
1.670532226562500000e+01,6.136491096457081120e-10
1.719665527343750000e+01,6.581049702425758270e-10
1.768798828125000000e+01,7.083947899278722369e-10
1.817932128906250000e+01,7.655490481919095487e-10
1.867065429687500000e+01,8.308385799309245039e-10
1.916198730468750000e+01,9.058451825327498635e-10
1.965332031250000000e+01,9.925576568967079083e-10
2.014465332031250000e+01,1.093504379909561519e-09
2.063598632812500000e+01,1.211939189843571838e-09
2.112731933593750000e+01,1.352106595871116960e-09
2.161865234375000000e+01,1.519627675873580623e-09
2.210998535156250000e+01,1.722073519535905969e-09
2.260131835937500000e+01,1.969838843987046220e-09
2.309265136718750000e+01,2.277509616597763427e-09
2.358398437500000000e+01,2.666072981250915581e-09
2.407531738281250000e+01,3.166620807666955342e-09
2.456665039062500000e+01,3.826827000062378914e-09
2.505798339843750000e+01,4.722865907336045426e-09
2.554931640625000000e+01,5.982730809916915258e-09
2.604064941406250000e+01,7.835462026066972800e-09
2.653198242187500000e+01,1.072566721132358743e-08
2.702331542968750000e+01,1.561666415229083845e-08
2.751464843750000000e+01,2.495380585554245897e-08
2.800598144531250000e+01,4.674012297724880404e-08
2.849731445312500000e+01,1.245485668999955614e-07
2.898864746093750000e+01,6.118613255711521579e-03
2.947998046875000000e+01,1.223666653297975603e-02
2.997131347656250000e+01,6.118613254362516470e-03
3.046264648437500000e+01,1.245512667119139870e-07
3.095397949218750000e+01,4.674417719309901921e-08
3.144531250000000000e+01,2.495921983443459512e-08
3.193664550781250000e+01,1.562344500599734059e-08
3.242797851562500000e+01,1.073382372813600466e-08
3.291931152343750000e+01,7.845004653305050526e-09
3.341064453125000000e+01,5.993671560656637440e-09
3.390197753906250000e+01,4.735218307355565445e-09
3.439331054687500000e+01,3.840605992622561822e-09
3.488464355468750000e+01,3.181842643803586167e-09
3.537597656250000000e+01,2.682755152312402896e-09
3.586730957031250000e+01,2.295670693065852882e-09
3.635864257812500000e+01,1.989498388350162904e-09
3.684997558593750000e+01,1.743251927980540968e-09
3.734130859375000000e+01,1.542346049559617868e-09
3.783264160156250000e+01,1.376386613516197789e-09
3.832397460937500000e+01,1.237802900843991508e-09
3.881530761718750000e+01,1.120974141881243574e-09
3.930664062500000000e+01,1.021655908564075818e-09
3.979797363281250000e+01,9.365943154333072515e-10
4.028930664062500000e+01,8.632608201041419437e-10
4.078063964843750000e+01,7.996662590849612024e-10
4.127197265625000000e+01,7.442284174221912097e-10
4.176330566406250000e+01,6.956758573873317176e-10
4.225463867187500000e+01,6.529774428893540019e-10
4.274597167968750000e+01,6.152897367168782024e-10
4.323730468750000000e+01,5.819174092019820887e-10
4.372863769531250000e+01,5.522830966037820399e-10
4.421997070312500000e+01,5.259041326263199587e-10
4.471130371093750000e+01,5.023745528864993727e-10
4.520263671875000000e+01,4.813509148677163867e-10
4.569396972656250000e+01,4.625411496776592873e-10
4.618530273437500000e+01,4.456956614921590929e-10
4.667663574218750000e+01,4.306001869054474942e-10
4.716796875000000000e+01,4.170700458024050870e-10
4.765930175781250000e+01,4.049454616471718085e-10
4.815063476562500000e+01,3.940877475444780458e-10
4.864196777343750000e+01,3.843761593263825486e-10
4.913330078125000000e+01,3.757053139428862388e-10
4.962463378906250000e+01,3.679830210693379603e-10
5.011596679687500000e+01,3.611285127243577116e-10
5.060729980468750000e+01,3.550709373991658915e-10
5.109863281250000000e+01,3.497480829748182625e-10
5.158996582031250000e+01,3.451053188315610085e-10
5.208129882812500000e+01,3.410947181257385921e-10
5.257263183593750000e+01,3.376742532736988926e-10
5.306396484375000000e+01,3.348071893892012521e-10
5.355529785156250000e+01,3.324614995947685297e-10
5.404663085937500000e+01,3.306094058240129713e-10
5.453796386718750000e+01,3.292269936233019684e-10
5.502929687500000000e+01,3.282938473163800041e-10
5.552062988281250000e+01,3.277927650936427645e-10
5.601196289062500000e+01,3.277095452441017104e-10
5.650329589843750000e+01,3.280327473854004753e-10
5.699462890625000000e+01,3.287535656247459794e-10
5.748596191406250000e+01,3.298656592939574769e-10
5.797729492187500000e+01,3.313650789300148573e-10
5.846862792968750000e+01,3.332501847783231532e-10
5.895996093750000000e+01,3.355215900491084160e-10
5.945129394531250000e+01,3.381821528698963393e-10
5.994262695312500000e+01,3.412369688958232750e-10
6.043395996093750000e+01,3.446934153281025224e-10
6.092529296875000000e+01,3.485611811128379428e-10
6.141662597656250000e+01,3.528523636730675349e-10
6.190795898437500000e+01,3.575815787384756644e-10
6.239929199218750000e+01,3.627660850130472878e-10
6.289062500000000000e+01,3.684259693084432756e-10
6.338195800781250000e+01,3.745843333549171972e-10
6.387329101562500000e+01,3.812675609517610494e-10
6.436462402343750000e+01,3.885055932428567318e-10
6.485595703125000000e+01,3.963322646499863031e-10
6.534729003906250000e+01,4.047857097189254987e-10
6.583862304687500000e+01,4.139088235134777107e-10
6.632995605468750000e+01,4.237498028353392880e-10
6.682128906250000000e+01,4.343627526807168842e-10
6.731262207031250000e+01,4.458084626545222602e-10
6.780395507812500000e+01,4.581552066692001107e-10
6.829528808593750000e+01,4.714797905937720654e-10
6.878662109375000000e+01,4.858686847024494158e-10
6.927795410156250000e+01,5.014194126180740667e-10
6.976928710937500000e+01,5.182421645767914326e-10
7.026062011718750000e+01,5.364617311714162496e-10
7.075195312500000000e+01,5.562197156723635664e-10
7.124328613281250000e+01,5.776773043174952451e-10
7.173461914062500000e+01,6.010184450789204330e-10
7.222595214843750000e+01,6.264537420115218447e-10
7.271728515625000000e+01,6.542251257516423974e-10
7.320861816406250000e+01,6.846115368466742963e-10
7.369995117187500000e+01,7.179358303764374256e-10
7.419128417968750000e+01,7.545732770420075497e-10
7.468261718750000000e+01,7.949619855015648573e-10
7.517395019531250000e+01,8.396159340856081107e-10
7.566528320312500000e+01,8.891411924732048077e-10
7.615661621093750000e+01,9.442563434937503828e-10
7.664794921875000000e+01,1.005818487222485124e-09
7.713928222656250000e+01,1.074856422325749322e-09
7.763061523437500000e+01,1.152613560556283254e-09
7.812194824218750000e+01,1.240603897331388412e-09
7.861328125000000000e+01,1.340685737301900723e-09
7.910461425781250000e+01,1.455160018852585568e-09
7.959594726562500000e+01,1.586902967168719960e-09
8.008728027343750000e+01,1.739547576983903475e-09
8.057861328125000000e+01,1.917735493673685297e-09
8.106994628906250000e+01,2.127472464610589026e-09
8.156127929687500000e+01,2.376638745088115692e-09
8.205261230468750000e+01,2.675737117584170318e-09
8.254394531250000000e+01,3.039013371818802820e-09
8.303527832031250000e+01,3.486177594610459339e-09
8.352661132812500000e+01,4.045124372973639456e-09
8.401794433593750000e+01,4.756373509680025351e-09
8.450927734375000000e+01,5.680597205196132243e-09
8.500061035156250000e+01,6.911952089644131086e-09
8.549194335937500000e+01,8.602959757587678706e-09
8.598327636718750000e+01,1.101396854717787246e-08
8.647460937500000000e+01,1.461948433540174098e-08
8.696594238281250000e+01,2.036073890940049800e-08
8.745727539062500000e+01,3.033065427719112598e-08
8.794860839843750000e+01,5.001368969298829011e-08
8.843994140625000000e+01,9.809427085873888120e-08
8.893127441406250000e+01,2.818271909815465974e-07
8.942260742187500000e+01,1.623258878806421723e-02
8.991394042968750000e+01,3.884676134847160622e-02
9.040527343750000000e+01,2.902468188819748440e-02
9.089660644531250000e+01,6.423155106713064437e-03
9.138793945312500000e+01,1.678458950997409842e-08
9.187927246093750000e+01,1.850708206311893437e-08
9.237060546875000000e+01,1.578776816342395702e-08
9.286193847656250000e+01,1.238261153576548413e-08
9.335327148437500000e+01,9.748752900343745616e-09
9.384460449218750000e+01,7.814178129619279928e-09
9.433593750000000000e+01,6.384886444111991882e-09
9.482727050781250000e+01,5.309715510230762089e-09
9.531860351562500000e+01,4.484750748765440461e-09
9.580993652343750000e+01,3.839772688714869511e-09
9.630126953125000000e+01,3.326862345896137108e-09
9.679260253906250000e+01,2.912736555682617227e-09
9.728393554687500000e+01,2.573824463788777675e-09
9.777526855468750000e+01,2.293112725746570409e-09
9.826660156250000000e+01,2.058099741124107677e-09
9.875793457031250000e+01,1.859446457244530451e-09
9.924926757812500000e+01,1.690070168965739549e-09
9.974060058593750000e+01,1.544524765369945555e-09
1.002319335937500000e+02,1.418569399845385270e-09
1.007232666015625000e+02,1.308863450094276287e-09
1.012145996093750000e+02,1.212747444918571376e-09
1.017059326171875000e+02,1.128083487767116856e-09
1.021972656250000000e+02,1.053137495326491137e-09
1.026885986328125000e+02,9.864912381095361108e-10
1.031799316406250000e+02,9.269758921081977260e-10
1.036712646484375000e+02,8.736212762636753653e-10
1.041625976562500000e+02,8.256167658010653329e-10
1.046539306640625000e+02,7.822808413924262437e-10
1.051452636718750000e+02,7.430372112982839909e-10
1.056365966796875000e+02,7.073959110071363775e-10
1.061279296875000000e+02,6.749382561704524293e-10
1.066192626953125000e+02,6.453047827900789948e-10
1.071105957031250000e+02,6.181854303849459965e-10
1.076019287109375000e+02,5.933116594932975324e-10
1.080932617187500000e+02,5.704499377615444910e-10
1.085845947265625000e+02,5.493964067051374969e-10
1.090759277343750000e+02,5.299724640491138041e-10
1.095672607421875000e+02,5.120211072508037521e-10
1.100585937500000000e+02,4.954038795231645825e-10
1.105499267578125000e+02,4.799982850639171850e-10
1.110412597656250000e+02,4.656956367660507176e-10
1.115325927734375000e+02,4.523992466660201356e-10
1.120239257812500000e+02,4.400228331634030385e-10
1.125152587890625000e+02,4.284892508217354943e-10
1.130065917968750000e+02,4.177293122249881426e-10
1.134979248046875000e+02,4.076808556342121101e-10
1.139892578125000000e+02,3.982878771521320704e-10
1.144805908203125000e+02,3.894998552592795298e-10
1.149719238281250000e+02,3.812710580357653725e-10
1.154632568359375000e+02,3.735600703488054193e-10
1.159545898437500000e+02,3.663292711239479636e-10
1.164459228515625000e+02,3.595444660023616131e-10
1.169372558593750000e+02,3.531744689035741035e-10
1.174285888671875000e+02,3.471908264071368149e-10
1.179199218750000000e+02,3.415675436248256871e-10
1.184112548828125000e+02,3.362807987199546465e-10
1.189025878906250000e+02,3.313087559965905135e-10
1.193939208984375000e+02,3.266313769522934962e-10
1.198852539062500000e+02,3.222302166444357910e-10
1.203765869140625000e+02,3.180883094022883404e-10
1.208679199218750000e+02,3.141900011281342804e-10
1.213592529296875000e+02,3.105208564230223954e-10
1.218505859375000000e+02,3.070675167045861320e-10
1.223419189453125000e+02,3.038176475452361358e-10
1.228332519531250000e+02,3.007598056517239346e-10
1.233245849609375000e+02,2.978833874697137161e-10
1.238159179687500000e+02,2.951785533870545529e-10
1.243072509765625000e+02,2.926361648734236980e-10
1.247985839843750000e+02,2.902477176572684087e-10
1.252899169921875000e+02,2.880052955484963820e-10
1.257812500000000000e+02,2.859015341455916296e-10
1.262725830078125000e+02,2.839295595381202597e-10
1.267639160156250000e+02,2.820829611585604099e-10
1.272552490234375000e+02,2.803557499781292323e-10
1.277465820312500000e+02,2.787423292931359606e-10
1.282379150390625000e+02,2.772374734565667325e-10
1.287292480468750000e+02,2.758362794407940325e-10
1.292205810546875000e+02,2.745341706216413757e-10
1.297119140625000000e+02,2.733268422251313180e-10
1.302032470703125000e+02,2.722102715417662243e-10
1.306945800781250000e+02,2.711806814462888720e-10
1.311859130859375000e+02,2.702345236262593857e-10
1.316772460937500000e+02,2.693684693984732036e-10
1.321685791015625000e+02,2.685793916977759949e-10
1.326599121093750000e+02,2.678643494383691118e-10
1.331512451171875000e+02,2.672205766185309258e-10
1.336425781250000000e+02,2.666454748840163632e-10
1.341339111328125000e+02,2.661366022065090661e-10
1.346252441406250000e+02,2.656916281773189066e-10
1.351165771484375000e+02,2.653084368982415160e-10
1.356079101562500000e+02,2.649849406224354012e-10
1.360992431640625000e+02,2.647192334964087743e-10
1.365905761718750000e+02,2.645094918426953638e-10
1.370819091796875000e+02,2.643540236673827851e-10
1.375732421875000000e+02,2.642512071162213810e-10
1.380645751953125000e+02,2.641995309572641759e-10
1.385559082031250000e+02,2.641975677297936152e-10
1.390472412109375000e+02,2.642439633242100324e-10
1.395385742187500000e+02,2.643374505496868009e-10
1.400299072265625000e+02,2.644768373486260779e-10
1.405212402343750000e+02,2.646609954401394237e-10
1.410125732421875000e+02,2.648888656331115426e-10
1.415039062500000000e+02,2.651594393042287942e-10
1.419952392578125000e+02,2.654717885884469175e-10
1.424865722656250000e+02,2.658250177920259669e-10
1.429779052734375000e+02,2.662183034263203013e-10
1.434692382812500000e+02,2.666508622894532936e-10
1.439605712890625000e+02,2.671219617438542039e-10
1.444519042968750000e+02,2.676309073044571863e-10
1.449432373046875000e+02,2.681770666376520252e-10
1.454345703125000000e+02,2.687598282486847057e-10
1.459259033203125000e+02,2.693786274547766309e-10
1.464172363281250000e+02,2.700329383161299994e-10
1.469085693359375000e+02,2.707222719415621095e-10
1.473999023437500000e+02,2.714461746992191373e-10
1.478912353515625000e+02,2.722042212472536180e-10
1.483825683593750000e+02,2.729960155778505085e-10
1.488739013671875000e+02,2.738211968035672781e-10
1.493652343750000000e+02,2.746794405030382718e-10
1.498565673828125000e+02,2.755704352444675274e-10
1.503479003906250000e+02,2.764938972260191025e-10
1.508392333984375000e+02,2.774495942584202905e-10
1.513305664062500000e+02,2.784372735872656061e-10
1.518218994140625000e+02,2.794567527154026844e-10
1.523132324218750000e+02,2.805078384901981928e-10
1.528045654296875000e+02,2.815903872822428178e-10
1.532958984375000000e+02,2.827042404298562785e-10
1.537872314453125000e+02,2.838493082613845196e-10
1.542785644531250000e+02,2.850254753280572481e-10
1.547698974609375000e+02,2.862326833631217757e-10
1.552612304687500000e+02,2.874708727955680213e-10
1.557525634765625000e+02,2.887400075561141853e-10
1.562438964843750000e+02,2.900400644248624506e-10
1.567352294921875000e+02,2.913710545645239352e-10
1.572265625000000000e+02,2.927329822313444351e-10
1.577178955078125000e+02,2.941258956772587909e-10
1.582092285156250000e+02,2.955498427728475407e-10
1.587005615234375000e+02,2.970048793001569488e-10
1.591918945312500000e+02,2.984911173836179984e-10
1.596832275390625000e+02,3.000086314067780324e-10
1.601745605468750000e+02,3.015575542904949359e-10
1.606658935546875000e+02,3.031380134291843245e-10
1.611572265625000000e+02,3.047501555279019882e-10
1.616485595703125000e+02,3.063941481194249811e-10
1.621398925781250000e+02,3.080701607184041818e-10
1.626312255859375000e+02,3.097784002514348815e-10
1.631225585937500000e+02,3.115190630848054089e-10
1.636138916015625000e+02,3.132923749838794833e-10
1.641052246093750000e+02,3.150985763211254028e-10
1.645965576171875000e+02,3.169379196121499334e-10
1.650878906250000000e+02,3.188106731088052468e-10
1.655792236328125000e+02,3.207171096157466921e-10
1.660705566406250000e+02,3.226575430917669880e-10
1.665618896484375000e+02,3.246322725733684754e-10
1.670532226562500000e+02,3.266416299383980954e-10
1.675445556640625000e+02,3.286859425315476846e-10
1.680358886718750000e+02,3.307655875335108195e-10
1.685272216796875000e+02,3.328809275355999802e-10
1.690185546875000000e+02,3.350323539495315724e-10
1.695098876953125000e+02,3.372202420475074873e-10
1.700012207031250000e+02,3.394450424962947405e-10
1.704925537109375000e+02,3.417071696592798175e-10
1.709838867187500000e+02,3.440070762578326898e-10
1.714752197265625000e+02,3.463452308021858487e-10
1.719665527343750000e+02,3.487221015715995392e-10
1.724578857421875000e+02,3.511381925802381242e-10
1.729492187500000000e+02,3.535940185868646339e-10
1.734405517578125000e+02,3.560901055541756589e-10
1.739318847656250000e+02,3.586270057027227880e-10
1.744232177734375000e+02,3.612052723805177094e-10
1.749145507812500000e+02,3.638254997728140037e-10
1.754058837890625000e+02,3.664882804486531304e-10
1.758972167968750000e+02,3.691942301094391157e-10
1.763885498046875000e+02,3.719439940853338412e-10
1.768798828125000000e+02,3.747382219717713349e-10
1.773712158203125000e+02,3.775775869952920365e-10
1.778625488281250000e+02,3.804627928531786470e-10
1.783538818359375000e+02,3.833945440918686883e-10
1.788452148437500000e+02,3.863735874715514872e-10
1.793365478515625000e+02,3.894006656633457406e-10
1.798278808593750000e+02,3.924765695736169793e-10
1.803192138671875000e+02,3.956020942167892427e-10
1.808105468750000000e+02,3.987780627663320411e-10
1.813018798828125000e+02,4.020053302417582378e-10
1.817932128906250000e+02,4.052847380750725892e-10
1.822845458984375000e+02,4.086172271352738235e-10
1.827758789062500000e+02,4.120036733595464800e-10
1.832672119140625000e+02,4.154450498692952490e-10
1.837585449218750000e+02,4.189423064377426647e-10
1.842498779296875000e+02,4.224964703702630311e-10
1.847412109375000000e+02,4.261085366060570602e-10
1.852325439453125000e+02,4.297795788162938719e-10
1.857238769531250000e+02,4.335106738975145958e-10
1.862152099609375000e+02,4.373029390695414893e-10
1.867065429687500000e+02,4.411575178569892934e-10
1.871978759765625000e+02,4.450755851699693374e-10
1.876892089843750000e+02,4.490583569759626998e-10
1.881805419921875000e+02,4.531070692193717955e-10
1.886718750000000000e+02,4.572230007891397899e-10
1.891632080078125000e+02,4.614074752837351857e-10
1.896545410156250000e+02,4.656618310427504015e-10
1.901458740234375000e+02,4.699874599428215582e-10
1.906372070312500000e+02,4.743857935947271933e-10
1.911285400390625000e+02,4.788583000581773854e-10
1.916198730468750000e+02,4.834064836558767357e-10
1.921112060546875000e+02,4.880319074954316750e-10
1.926025390625000000e+02,4.927361560991526669e-10
1.930938720703125000e+02,4.975208832102410621e-10
1.935852050781250000e+02,5.023877791497662719e-10
1.940765380859375000e+02,5.073385745711716706e-10
1.945678710937500000e+02,5.123750628545454516e-10
1.950592041015625000e+02,5.174990922659836377e-10
1.955505371093750000e+02,5.227125498874517725e-10
